in Sa,Frequency in Hz,Gain in dB,Phase in °,Amplitude in Vpp
1.00E+00,1.000E+01,-7.843E+01,-1.003E+02,5.000E+00
2.00E+00,1.023E+01,-7.786E+01,-1.058E+02,5.000E+00
3.00E+00,1.047E+01,-7.749E+01,-1.135E+02,5.000E+00
4.00E+00,1.072E+01,-7.881E+01,-1.165E+02,5.000E+00
5.00E+00,1.096E+01,-7.688E+01,-1.003E+02,5.000E+00
6.00E+00,1.122E+01,-7.734E+01,-1.147E+02,5.000E+00
7.00E+00,1.148E+01,-7.891E+01,-1.069E+02,5.000E+00
8.00E+00,1.175E+01,-7.842E+01,-1.140E+02,5.000E+00
9.00E+00,1.202E+01,-7.674E+01,-1.108E+02,5.000E+00
1.00E+01,1.230E+01,-7.744E+01,-1.031E+02,5.000E+00
1.10E+01,1.259E+01,-7.625E+01,-1.127E+02,5.000E+00
1.20E+01,1.288E+01,-7.605E+01,-1.143E+02,5.000E+00
1.30E+01,1.318E+01,-7.575E+01,-1.163E+02,5.000E+00
1.40E+01,1.349E+01,-7.667E+01,-1.132E+02,5.000E+00
1.50E+01,1.380E+01,-7.564E+01,-1.079E+02,5.000E+00
1.60E+01,1.413E+01,-7.668E+01,-1.163E+02,5.000E+00
1.70E+01,1.445E+01,-7.599E+01,-1.115E+02,5.000E+00
1.80E+01,1.479E+01,-7.481E+01,-1.069E+02,5.000E+00
1.90E+01,1.514E+01,-7.525E+01,-1.152E+02,5.000E+00
2.00E+01,1.549E+01,-7.440E+01,-1.148E+02,5.000E+00
2.10E+01,1.585E+01,-7.539E+01,-1.109E+02,5.000E+00
2.20E+01,1.622E+01,-7.394E+01,-1.135E+02,5.000E+00
2.30E+01,1.660E+01,-7.438E+01,-1.083E+02,5.000E+00
2.40E+01,1.698E+01,-7.391E+01,-1.159E+02,5.000E+00
2.50E+01,1.738E+01,-7.385E+01,-1.177E+02,5.000E+00
2.60E+01,1.778E+01,-7.401E+01,-1.081E+02,5.000E+00
2.70E+01,1.820E+01,-7.286E+01,-1.153E+02,5.000E+00
2.80E+01,1.862E+01,-7.410E+01,-1.160E+02,5.000E+00
2.90E+01,1.905E+01,-7.275E+01,-1.210E+02,5.000E+00
3.00E+01,1.950E+01,-7.308E+01,-1.158E+02,5.000E+00
3.10E+01,1.995E+01,-7.178E+01,-1.103E+02,5.000E+00
3.20E+01,2.042E+01,-7.350E+01,-1.094E+02,5.000E+00
3.30E+01,2.089E+01,-7.239E+01,-1.151E+02,5.000E+00
3.40E+01,2.138E+01,-7.149E+01,-1.199E+02,5.000E+00
3.50E+01,2.188E+01,-7.250E+01,-1.186E+02,5.000E+00
3.60E+01,2.239E+01,-7.144E+01,-1.165E+02,5.000E+00
3.70E+01,2.291E+01,-7.190E+01,-1.194E+02,5.000E+00
3.80E+01,2.344E+01,-7.241E+01,-1.264E+02,5.000E+00
3.90E+01,2.399E+01,-7.153E+01,-1.196E+02,5.000E+00
4.00E+01,2.455E+01,-7.163E+01,-1.210E+02,5.000E+00
4.10E+01,2.512E+01,-7.123E+01,-1.261E+02,5.000E+00
4.20E+01,2.570E+01,-7.187E+01,-1.258E+02,5.000E+00
4.30E+01,2.630E+01,-7.100E+01,-1.180E+02,5.000E+00
4.40E+01,2.692E+01,-7.213E+01,-1.210E+02,5.000E+00
4.50E+01,2.754E+01,-7.048E+01,-1.197E+02,5.000E+00
4.60E+01,2.818E+01,-7.106E+01,-1.218E+02,5.000E+00
4.70E+01,2.884E+01,-7.066E+01,-1.219E+02,5.000E+00
4.80E+01,2.951E+01,-7.157E+01,-1.207E+02,5.000E+00
4.90E+01,3.020E+01,-7.081E+01,-1.282E+02,5.000E+00
5.00E+01,3.090E+01,-7.035E+01,-1.276E+02,5.000E+00
5.10E+01,3.162E+01,-7.049E+01,-1.260E+02,5.000E+00
5.20E+01,3.236E+01,-7.071E+01,-1.207E+02,5.000E+00
5.30E+01,3.311E+01,-7.030E+01,-1.228E+02,5.000E+00
5.40E+01,3.388E+01,-7.056E+01,-1.248E+02,5.000E+00
5.50E+01,3.467E+01,-7.063E+01,-1.299E+02,5.000E+00
5.60E+01,3.548E+01,-6.879E+01,-1.301E+02,5.000E+00
5.70E+01,3.631E+01,-6.899E+01,-1.289E+02,5.000E+00
5.80E+01,3.715E+01,-7.008E+01,-1.261E+02,5.000E+00
5.90E+01,3.802E+01,-6.979E+01,-1.310E+02,5.000E+00
6.00E+01,3.890E+01,-6.870E+01,-1.313E+02,5.000E+00
6.10E+01,3.981E+01,-6.998E+01,-1.299E+02,5.000E+00
6.20E+01,4.074E+01,-6.958E+01,-1.235E+02,5.000E+00
6.30E+01,4.169E+01,-6.811E+01,-1.321E+02,5.000E+00
6.40E+01,4.266E+01,-6.920E+01,-1.248E+02,5.000E+00
6.50E+01,4.365E+01,-6.865E+01,-1.383E+02,5.000E+00
6.60E+01,4.467E+01,-6.766E+01,-1.291E+02,5.000E+00
6.70E+01,4.571E+01,-6.839E+01,-1.247E+02,5.000E+00
6.80E+01,4.677E+01,-6.763E+01,-1.332E+02,5.000E+00
6.90E+01,4.786E+01,-6.765E+01,-1.335E+02,5.000E+00
7.00E+01,4.898E+01,-6.919E+01,-1.297E+02,5.000E+00
7.10E+01,5.012E+01,-6.722E+01,-1.351E+02,5.000E+00
7.20E+01,5.129E+01,-6.840E+01,-1.387E+02,5.000E+00
7.30E+01,5.248E+01,-6.973E+01,-1.389E+02,5.000E+00
7.40E+01,5.370E+01,-6.914E+01,-1.285E+02,5.000E+00
7.50E+01,5.495E+01,-6.807E+01,-1.248E+02,5.000E+00
7.60E+01,5.623E+01,-6.910E+01,-1.352E+02,5.000E+00
7.70E+01,5.754E+01,-6.822E+01,-1.362E+02,5.000E+00
7.80E+01,5.888E+01,-6.863E+01,-1.311E+02,5.000E+00
7.90E+01,6.026E+01,-6.700E+01,-1.310E+02,5.000E+00
8.00E+01,6.166E+01,-6.665E+01,-1.324E+02,5.000E+00
8.10E+01,6.310E+01,-6.721E+01,-1.310E+02,5.000E+00
8.20E+01,6.457E+01,-6.703E+01,-1.377E+02,5.000E+00
8.30E+01,6.607E+01,-6.790E+01,-1.348E+02,5.000E+00
8.40E+01,6.761E+01,-6.649E+01,-1.332E+02,5.000E+00
8.50E+01,6.918E+01,-6.721E+01,-1.294E+02,5.000E+00
8.60E+01,7.079E+01,-6.674E+01,-1.342E+02,5.000E+00
8.70E+01,7.244E+01,-6.706E+01,-1.377E+02,5.000E+00
8.80E+01,7.413E+01,-6.628E+01,-1.331E+02,5.000E+00
8.90E+01,7.586E+01,-6.719E+01,-1.360E+02,5.000E+00
9.00E+01,7.762E+01,-6.672E+01,-1.393E+02,5.000E+00
9.10E+01,7.943E+01,-6.644E+01,-1.363E+02,5.000E+00
9.20E+01,8.128E+01,-6.600E+01,-1.362E+02,5.000E+00
9.30E+01,8.318E+01,-6.600E+01,-1.372E+02,5.000E+00
9.40E+01,8.511E+01,-6.592E+01,-1.382E+02,5.000E+00
9.50E+01,8.710E+01,-6.601E+01,-1.365E+02,5.000E+00
9.60E+01,8.913E+01,-6.579E+01,-1.390E+02,5.000E+00
9.70E+01,9.120E+01,-6.581E+01,-1.379E+02,5.000E+00
9.80E+01,9.333E+01,-6.582E+01,-1.372E+02,5.000E+00
9.90E+01,9.550E+01,-6.561E+01,-1.374E+02,5.000E+00
1.00E+02,9.772E+01,-6.554E+01,-1.388E+02,5.000E+00
1.01E+02,1.000E+02,-6.535E+01,-1.392E+02,5.000E+00
1.02E+02,1.023E+02,-6.560E+01,-1.384E+02,5.000E+00
1.03E+02,1.047E+02,-6.519E+01,-1.402E+02,5.000E+00
1.04E+02,1.072E+02,-6.530E+01,-1.399E+02,5.000E+00
1.05E+02,1.096E+02,-6.527E+01,-1.396E+02,5.000E+00
1.06E+02,1.122E+02,-6.519E+01,-1.390E+02,5.000E+00
1.07E+02,1.148E+02,-6.499E+01,-1.410E+02,5.000E+00
1.08E+02,1.175E+02,-6.480E+01,-1.409E+02,5.000E+00
1.09E+02,1.202E+02,-6.483E+01,-1.412E+02,5.000E+00
1.10E+02,1.230E+02,-6.468E+01,-1.409E+02,5.000E+00
1.11E+02,1.259E+02,-6.474E+01,-1.414E+02,5.000E+00
1.12E+02,1.288E+02,-6.445E+01,-1.412E+02,5.000E+00
1.13E+02,1.318E+02,-6.452E+01,-1.419E+02,5.000E+00
1.14E+02,1.349E+02,-6.452E+01,-1.419E+02,5.000E+00
1.15E+02,1.380E+02,-6.420E+01,-1.422E+02,5.000E+00
1.16E+02,1.413E+02,-6.434E+01,-1.434E+02,5.000E+00
1.17E+02,1.445E+02,-6.427E+01,-1.423E+02,5.000E+00
1.18E+02,1.479E+02,-6.404E+01,-1.425E+02,5.000E+00
1.19E+02,1.514E+02,-6.398E+01,-1.424E+02,5.000E+00
1.20E+02,1.549E+02,-6.392E+01,-1.425E+02,5.000E+00
1.21E+02,1.585E+02,-6.389E+01,-1.435E+02,5.000E+00
1.22E+02,1.622E+02,-6.375E+01,-1.438E+02,5.000E+00
1.23E+02,1.660E+02,-6.374E+01,-1.433E+02,5.000E+00
1.24E+02,1.698E+02,-6.370E+01,-1.442E+02,5.000E+00
1.25E+02,1.738E+02,-6.352E+01,-1.443E+02,5.000E+00
1.26E+02,1.778E+02,-6.342E+01,-1.447E+02,5.000E+00
1.27E+02,1.820E+02,-6.338E+01,-1.439E+02,5.000E+00
1.28E+02,1.862E+02,-6.327E+01,-1.447E+02,5.000E+00
1.29E+02,1.905E+02,-6.327E+01,-1.444E+02,5.000E+00
1.30E+02,1.950E+02,-6.314E+01,-1.446E+02,5.000E+00
1.31E+02,1.995E+02,-6.308E+01,-1.448E+02,5.000E+00
1.32E+02,2.042E+02,-6.293E+01,-1.467E+02,5.000E+00
1.33E+02,2.089E+02,-6.301E+01,-1.454E+02,5.000E+00
1.34E+02,2.138E+02,-6.291E+01,-1.460E+02,5.000E+00
1.35E+02,2.188E+02,-6.277E+01,-1.460E+02,5.000E+00
1.36E+02,2.239E+02,-6.270E+01,-1.460E+02,5.000E+00
1.37E+02,2.291E+02,-6.275E+01,-1.463E+02,5.000E+00
1.38E+02,2.344E+02,-6.264E+01,-1.461E+02,5.000E+00
1.39E+02,2.399E+02,-6.263E+01,-1.477E+02,5.000E+00
1.40E+02,2.455E+02,-6.255E+01,-1.481E+02,5.000E+00
1.41E+02,2.512E+02,-6.231E+01,-1.468E+02,5.000E+00
1.42E+02,2.570E+02,-6.225E+01,-1.477E+02,5.000E+00
1.43E+02,2.630E+02,-6.224E+01,-1.481E+02,5.000E+00
1.44E+02,2.692E+02,-6.217E+01,-1.479E+02,5.000E+00
1.45E+02,2.754E+02,-6.209E+01,-1.489E+02,5.000E+00
1.46E+02,2.818E+02,-6.200E+01,-1.480E+02,5.000E+00
1.47E+02,2.884E+02,-6.195E+01,-1.483E+02,5.000E+00
1.48E+02,2.951E+02,-6.187E+01,-1.485E+02,5.000E+00
1.49E+02,3.020E+02,-6.183E+01,-1.485E+02,5.000E+00
1.50E+02,3.090E+02,-6.170E+01,-1.491E+02,5.000E+00
1.51E+02,3.162E+02,-6.166E+01,-1.493E+02,5.000E+00
1.52E+02,3.236E+02,-6.160E+01,-1.496E+02,5.000E+00
1.53E+02,3.311E+02,-6.145E+01,-1.497E+02,5.000E+00
1.54E+02,3.388E+02,-6.151E+01,-1.502E+02,5.000E+00
1.55E+02,3.467E+02,-6.137E+01,-1.504E+02,5.000E+00
1.56E+02,3.548E+02,-6.138E+01,-1.508E+02,5.000E+00
1.57E+02,3.631E+02,-6.132E+01,-1.505E+02,5.000E+00
1.58E+02,3.715E+02,-6.120E+01,-1.504E+02,5.000E+00
1.59E+02,3.802E+02,-6.110E+01,-1.510E+02,5.000E+00
1.60E+02,3.890E+02,-6.109E+01,-1.512E+02,5.000E+00
1.61E+02,3.981E+02,-6.101E+01,-1.509E+02,5.000E+00
1.62E+02,4.074E+02,-6.102E+01,-1.515E+02,5.000E+00
1.63E+02,4.169E+02,-6.096E+01,-1.518E+02,5.000E+00
1.64E+02,4.266E+02,-6.086E+01,-1.519E+02,5.000E+00
1.65E+02,4.365E+02,-6.071E+01,-1.519E+02,5.000E+00
1.66E+02,4.467E+02,-6.069E+01,-1.521E+02,5.000E+00
1.67E+02,4.571E+02,-6.056E+01,-1.527E+02,5.000E+00
1.68E+02,4.677E+02,-6.063E+01,-1.530E+02,5.000E+00
1.69E+02,4.786E+02,-6.047E+01,-1.535E+02,5.000E+00
1.70E+02,4.898E+02,-6.045E+01,-1.535E+02,5.000E+00
1.71E+02,5.012E+02,-6.037E+01,-1.533E+02,5.000E+00
1.72E+02,5.129E+02,-6.038E+01,-1.535E+02,5.000E+00
1.73E+02,5.248E+02,-6.024E+01,-1.544E+02,5.000E+00
1.74E+02,5.370E+02,-6.013E+01,-1.540E+02,5.000E+00
1.75E+02,5.495E+02,-6.015E+01,-1.542E+02,5.000E+00
1.76E+02,5.623E+02,-6.009E+01,-1.546E+02,5.000E+00
1.77E+02,5.754E+02,-6.008E+01,-1.547E+02,5.000E+00
1.78E+02,5.888E+02,-5.996E+01,-1.543E+02,5.000E+00
1.79E+02,6.026E+02,-5.984E+01,-1.549E+02,5.000E+00
1.80E+02,6.166E+02,-5.980E+01,-1.554E+02,5.000E+00
1.81E+02,6.310E+02,-5.972E+01,-1.557E+02,5.000E+00
1.82E+02,6.457E+02,-5.972E+01,-1.553E+02,5.000E+00
1.83E+02,6.607E+02,-5.969E+01,-1.559E+02,5.000E+00
1.84E+02,6.761E+02,-5.967E+01,-1.559E+02,5.000E+00
1.85E+02,6.918E+02,-5.953E+01,-1.562E+02,5.000E+00
1.86E+02,7.079E+02,-5.952E+01,-1.565E+02,5.000E+00
1.87E+02,7.244E+02,-5.946E+01,-1.568E+02,5.000E+00
1.88E+02,7.413E+02,-5.940E+01,-1.570E+02,5.000E+00
1.89E+02,7.586E+02,-5.937E+01,-1.572E+02,5.000E+00
1.90E+02,7.762E+02,-5.930E+01,-1.571E+02,5.000E+00
1.91E+02,7.943E+02,-5.923E+01,-1.574E+02,5.000E+00
1.92E+02,8.128E+02,-5.915E+01,-1.572E+02,5.000E+00
1.93E+02,8.318E+02,-5.909E+01,-1.577E+02,5.000E+00
1.94E+02,8.511E+02,-5.905E+01,-1.580E+02,5.000E+00
1.95E+02,8.710E+02,-5.901E+01,-1.588E+02,5.000E+00
1.96E+02,8.913E+02,-5.898E+01,-1.586E+02,5.000E+00
1.97E+02,9.120E+02,-5.892E+01,-1.589E+02,5.000E+00
1.98E+02,9.333E+02,-5.885E+01,-1.592E+02,5.000E+00
1.99E+02,9.550E+02,-5.881E+01,-1.592E+02,5.000E+00
2.00E+02,9.772E+02,-5.878E+01,-1.596E+02,5.000E+00
2.01E+02,1.000E+03,-5.873E+01,-1.596E+02,5.000E+00
2.02E+02,1.023E+03,-5.869E+01,-1.600E+02,5.000E+00
2.03E+02,1.047E+03,-5.864E+01,-1.601E+02,5.000E+00
2.04E+02,1.072E+03,-5.858E+01,-1.607E+02,5.000E+00
2.05E+02,1.096E+03,-5.851E+01,-1.607E+02,5.000E+00
2.06E+02,1.122E+03,-5.849E+01,-1.611E+02,5.000E+00
2.07E+02,1.148E+03,-5.843E+01,-1.613E+02,5.000E+00
2.08E+02,1.175E+03,-5.843E+01,-1.614E+02,5.000E+00
2.09E+02,1.202E+03,-5.836E+01,-1.616E+02,5.000E+00
2.10E+02,1.230E+03,-5.833E+01,-1.620E+02,5.000E+00
2.11E+02,1.259E+03,-5.828E+01,-1.622E+02,5.000E+00
2.12E+02,1.288E+03,-5.825E+01,-1.625E+02,5.000E+00
2.13E+02,1.318E+03,-5.818E+01,-1.628E+02,5.000E+00
2.14E+02,1.349E+03,-5.819E+01,-1.627E+02,5.000E+00
2.15E+02,1.380E+03,-5.813E+01,-1.630E+02,5.000E+00
2.16E+02,1.413E+03,-5.808E+01,-1.636E+02,5.000E+00
2.17E+02,1.445E+03,-5.803E+01,-1.636E+02,5.000E+00
2.18E+02,1.479E+03,-5.798E+01,-1.641E+02,5.000E+00
2.19E+02,1.514E+03,-5.796E+01,-1.642E+02,5.000E+00
2.20E+02,1.549E+03,-5.795E+01,-1.646E+02,5.000E+00
2.21E+02,1.585E+03,-5.792E+01,-1.647E+02,5.000E+00
2.22E+02,1.622E+03,-5.790E+01,-1.648E+02,5.000E+00
2.23E+02,1.660E+03,-5.783E+01,-1.650E+02,5.000E+00
2.24E+02,1.698E+03,-5.777E+01,-1.655E+02,5.000E+00
2.25E+02,1.738E+03,-5.775E+01,-1.658E+02,5.000E+00
2.26E+02,1.778E+03,-5.774E+01,-1.660E+02,5.000E+00
2.27E+02,1.820E+03,-5.770E+01,-1.661E+02,5.000E+00
2.28E+02,1.862E+03,-5.765E+01,-1.666E+02,5.000E+00
2.29E+02,1.905E+03,-5.765E+01,-1.668E+02,5.000E+00
2.30E+02,1.950E+03,-5.762E+01,-1.670E+02,5.000E+00
2.31E+02,1.995E+03,-5.758E+01,-1.670E+02,5.000E+00
2.32E+02,2.042E+03,-5.754E+01,-1.676E+02,5.000E+00
2.33E+02,2.089E+03,-5.752E+01,-1.678E+02,5.000E+00
2.34E+02,2.138E+03,-5.749E+01,-1.680E+02,5.000E+00
2.35E+02,2.188E+03,-5.747E+01,-1.682E+02,5.000E+00
2.36E+02,2.239E+03,-5.744E+01,-1.683E+02,5.000E+00
2.37E+02,2.291E+03,-5.740E+01,-1.686E+02,5.000E+00
2.38E+02,2.344E+03,-5.737E+01,-1.689E+02,5.000E+00
2.39E+02,2.399E+03,-5.735E+01,-1.691E+02,5.000E+00
2.40E+02,2.455E+03,-5.733E+01,-1.693E+02,5.000E+00
2.41E+02,2.512E+03,-5.732E+01,-1.699E+02,5.000E+00
2.42E+02,2.570E+03,-5.729E+01,-1.700E+02,5.000E+00
2.43E+02,2.630E+03,-5.726E+01,-1.701E+02,5.000E+00
2.44E+02,2.692E+03,-5.722E+01,-1.702E+02,5.000E+00
2.45E+02,2.754E+03,-5.723E+01,-1.704E+02,5.000E+00
2.46E+02,2.818E+03,-5.721E+01,-1.708E+02,5.000E+00
2.47E+02,2.884E+03,-5.717E+01,-1.711E+02,5.000E+00
2.48E+02,2.951E+03,-5.715E+01,-1.714E+02,5.000E+00
2.49E+02,3.020E+03,-5.714E+01,-1.717E+02,5.000E+00
2.50E+02,3.090E+03,-5.713E+01,-1.716E+02,5.000E+00
2.51E+02,3.162E+03,-5.709E+01,-1.720E+02,5.000E+00
2.52E+02,3.236E+03,-5.707E+01,-1.724E+02,5.000E+00
2.53E+02,3.311E+03,-5.706E+01,-1.728E+02,5.000E+00
2.54E+02,3.388E+03,-5.704E+01,-1.729E+02,5.000E+00
2.55E+02,3.467E+03,-5.703E+01,-1.731E+02,5.000E+00
2.56E+02,3.548E+03,-5.700E+01,-1.732E+02,5.000E+00
2.57E+02,3.631E+03,-5.702E+01,-1.734E+02,5.000E+00
2.58E+02,3.715E+03,-5.699E+01,-1.739E+02,5.000E+00
2.59E+02,3.802E+03,-5.696E+01,-1.742E+02,5.000E+00
2.60E+02,3.890E+03,-5.695E+01,-1.744E+02,5.000E+00
2.61E+02,3.981E+03,-5.692E+01,-1.744E+02,5.000E+00
2.62E+02,4.074E+03,-5.691E+01,-1.748E+02,5.000E+00
2.63E+02,4.169E+03,-5.690E+01,-1.751E+02,5.000E+00
2.64E+02,4.266E+03,-5.690E+01,-1.754E+02,5.000E+00
2.65E+02,4.365E+03,-5.689E+01,-1.756E+02,5.000E+00
2.66E+02,4.467E+03,-5.685E+01,-1.759E+02,5.000E+00
2.67E+02,4.571E+03,-5.688E+01,-1.761E+02,5.000E+00
2.68E+02,4.677E+03,-5.686E+01,-1.761E+02,5.000E+00
2.69E+02,4.786E+03,-5.685E+01,-1.763E+02,5.000E+00
2.70E+02,4.898E+03,-5.683E+01,-1.765E+02,5.000E+00
2.71E+02,5.012E+03,-5.681E+01,-1.771E+02,5.000E+00
2.72E+02,5.129E+03,-5.680E+01,-1.774E+02,5.000E+00
2.73E+02,5.248E+03,-5.679E+01,-1.777E+02,5.000E+00
2.74E+02,5.370E+03,-5.679E+01,-1.779E+02,5.000E+00
2.75E+02,5.495E+03,-5.677E+01,-1.780E+02,5.000E+00
2.76E+02,5.623E+03,-5.677E+01,-1.781E+02,5.000E+00
2.77E+02,5.754E+03,-5.676E+01,-1.784E+02,5.000E+00
2.78E+02,5.888E+03,-5.675E+01,-1.790E+02,5.000E+00
2.79E+02,6.026E+03,-5.676E+01,-1.792E+02,5.000E+00
2.80E+02,6.166E+03,-5.674E+01,-1.794E+02,5.000E+00
2.81E+02,6.310E+03,-5.674E+01,-1.796E+02,5.000E+00
2.82E+02,6.457E+03,-5.672E+01,-1.797E+02,5.000E+00
2.83E+02,6.607E+03,-5.672E+01,1.800E+02,5.000E+00
2.84E+02,6.761E+03,-5.670E+01,1.795E+02,5.000E+00
2.85E+02,6.918E+03,-5.671E+01,1.793E+02,5.000E+00
2.86E+02,7.079E+03,-5.671E+01,1.791E+02,5.000E+00
2.87E+02,7.244E+03,-5.671E+01,1.790E+02,5.000E+00
2.88E+02,7.413E+03,-5.671E+01,1.786E+02,5.000E+00
2.89E+02,7.586E+03,-5.670E+01,1.782E+02,5.000E+00
2.90E+02,7.762E+03,-5.670E+01,1.780E+02,5.000E+00
2.91E+02,7.943E+03,-5.670E+01,1.777E+02,5.000E+00
2.92E+02,8.128E+03,-5.668E+01,1.775E+02,5.000E+00
2.93E+02,8.318E+03,-5.669E+01,1.772E+02,5.000E+00
2.94E+02,8.511E+03,-5.668E+01,1.770E+02,5.000E+00
2.95E+02,8.710E+03,-5.668E+01,1.765E+02,5.000E+00
2.96E+02,8.913E+03,-5.671E+01,1.760E+02,5.000E+00
2.97E+02,9.120E+03,-5.670E+01,1.759E+02,5.000E+00
2.98E+02,9.333E+03,-5.669E+01,1.758E+02,5.000E+00
2.99E+02,9.550E+03,-5.668E+01,1.755E+02,5.000E+00
3.00E+02,9.772E+03,-5.668E+01,1.754E+02,5.000E+00
3.01E+02,1.000E+04,-5.668E+01,1.749E+02,5.000E+00
