in Sa,Frequency in Hz,Gain in dB,Phase in °,Amplitude in Vpp
1.00E+00,1.000E+01,-5.403E+01,-1.226E+02,5.000E+00
2.00E+00,1.012E+01,-5.402E+01,-1.067E+02,5.000E+00
3.00E+00,1.023E+01,-5.367E+01,-1.119E+02,5.000E+00
4.00E+00,1.035E+01,-5.409E+01,-1.171E+02,5.000E+00
5.00E+00,1.047E+01,-5.366E+01,-1.101E+02,5.000E+00
6.00E+00,1.059E+01,-5.376E+01,-1.164E+02,5.000E+00
7.00E+00,1.072E+01,-5.227E+01,-1.189E+02,5.000E+00
8.00E+00,1.084E+01,-5.404E+01,-1.127E+02,5.000E+00
9.00E+00,1.096E+01,-5.214E+01,-1.149E+02,5.000E+00
1.00E+01,1.109E+01,-5.347E+01,-1.158E+02,5.000E+00
1.10E+01,1.122E+01,-5.349E+01,-1.178E+02,5.000E+00
1.20E+01,1.135E+01,-5.284E+01,-1.166E+02,5.000E+00
1.30E+01,1.148E+01,-5.236E+01,-1.169E+02,5.000E+00
1.40E+01,1.161E+01,-5.263E+01,-1.232E+02,5.000E+00
1.50E+01,1.175E+01,-5.386E+01,-1.143E+02,5.000E+00
1.60E+01,1.189E+01,-5.310E+01,-1.224E+02,5.000E+00
1.70E+01,1.202E+01,-5.347E+01,-1.171E+02,5.000E+00
1.80E+01,1.216E+01,-5.268E+01,-1.234E+02,5.000E+00
1.90E+01,1.230E+01,-5.276E+01,-1.215E+02,5.000E+00
2.00E+01,1.245E+01,-5.246E+01,-1.197E+02,5.000E+00
2.10E+01,1.259E+01,-5.244E+01,-1.183E+02,5.000E+00
2.20E+01,1.274E+01,-5.253E+01,-1.178E+02,5.000E+00
2.30E+01,1.288E+01,-5.182E+01,-1.214E+02,5.000E+00
2.40E+01,1.303E+01,-5.175E+01,-1.230E+02,5.000E+00
2.50E+01,1.318E+01,-5.152E+01,-1.168E+02,5.000E+00
2.60E+01,1.334E+01,-5.160E+01,-1.228E+02,5.000E+00
2.70E+01,1.349E+01,-5.214E+01,-1.264E+02,5.000E+00
2.80E+01,1.365E+01,-5.245E+01,-1.301E+02,5.000E+00
2.90E+01,1.380E+01,-5.212E+01,-1.204E+02,5.000E+00
3.00E+01,1.396E+01,-5.162E+01,-1.254E+02,5.000E+00
3.10E+01,1.413E+01,-5.177E+01,-1.196E+02,5.000E+00
3.20E+01,1.429E+01,-5.227E+01,-1.281E+02,5.000E+00
3.30E+01,1.445E+01,-5.179E+01,-1.258E+02,5.000E+00
3.40E+01,1.462E+01,-5.101E+01,-1.253E+02,5.000E+00
3.50E+01,1.479E+01,-5.114E+01,-1.244E+02,5.000E+00
3.60E+01,1.496E+01,-5.141E+01,-1.201E+02,5.000E+00
3.70E+01,1.514E+01,-4.995E+01,-1.239E+02,5.000E+00
3.80E+01,1.531E+01,-5.096E+01,-1.290E+02,5.000E+00
3.90E+01,1.549E+01,-5.103E+01,-1.220E+02,5.000E+00
4.00E+01,1.567E+01,-5.085E+01,-1.173E+02,5.000E+00
4.10E+01,1.585E+01,-5.070E+01,-1.308E+02,5.000E+00
4.20E+01,1.603E+01,-5.011E+01,-1.272E+02,5.000E+00
4.30E+01,1.622E+01,-5.040E+01,-1.311E+02,5.000E+00
4.40E+01,1.641E+01,-5.039E+01,-1.299E+02,5.000E+00
4.50E+01,1.660E+01,-5.056E+01,-1.308E+02,5.000E+00
4.60E+01,1.679E+01,-5.121E+01,-1.323E+02,5.000E+00
4.70E+01,1.698E+01,-5.058E+01,-1.264E+02,5.000E+00
4.80E+01,1.718E+01,-4.960E+01,-1.270E+02,5.000E+00
4.90E+01,1.738E+01,-5.037E+01,-1.261E+02,5.000E+00
5.00E+01,1.758E+01,-4.983E+01,-1.331E+02,5.000E+00
5.10E+01,1.778E+01,-5.004E+01,-1.296E+02,5.000E+00
5.20E+01,1.799E+01,-4.996E+01,-1.324E+02,5.000E+00
5.30E+01,1.820E+01,-5.012E+01,-1.322E+02,5.000E+00
5.40E+01,1.841E+01,-4.997E+01,-1.282E+02,5.000E+00
5.50E+01,1.862E+01,-4.939E+01,-1.308E+02,5.000E+00
5.60E+01,1.884E+01,-4.895E+01,-1.329E+02,5.000E+00
5.70E+01,1.905E+01,-4.951E+01,-1.321E+02,5.000E+00
5.80E+01,1.928E+01,-5.067E+01,-1.351E+02,5.000E+00
5.90E+01,1.950E+01,-5.001E+01,-1.324E+02,5.000E+00
6.00E+01,1.972E+01,-4.906E+01,-1.328E+02,5.000E+00
6.10E+01,1.995E+01,-4.945E+01,-1.378E+02,5.000E+00
6.20E+01,2.018E+01,-4.996E+01,-1.354E+02,5.000E+00
6.30E+01,2.042E+01,-4.924E+01,-1.374E+02,5.000E+00
6.40E+01,2.065E+01,-5.035E+01,-1.327E+02,5.000E+00
6.50E+01,2.089E+01,-4.964E+01,-1.363E+02,5.000E+00
6.60E+01,2.113E+01,-4.916E+01,-1.335E+02,5.000E+00
6.70E+01,2.138E+01,-4.895E+01,-1.395E+02,5.000E+00
6.80E+01,2.163E+01,-4.976E+01,-1.362E+02,5.000E+00
6.90E+01,2.188E+01,-4.959E+01,-1.363E+02,5.000E+00
7.00E+01,2.213E+01,-4.914E+01,-1.342E+02,5.000E+00
7.10E+01,2.239E+01,-4.789E+01,-1.360E+02,5.000E+00
7.20E+01,2.265E+01,-4.858E+01,-1.336E+02,5.000E+00
7.30E+01,2.291E+01,-4.926E+01,-1.365E+02,5.000E+00
7.40E+01,2.317E+01,-4.958E+01,-1.370E+02,5.000E+00
7.50E+01,2.344E+01,-4.777E+01,-1.357E+02,5.000E+00
7.60E+01,2.371E+01,-4.930E+01,-1.382E+02,5.000E+00
7.70E+01,2.399E+01,-4.826E+01,-1.343E+02,5.000E+00
7.80E+01,2.427E+01,-4.815E+01,-1.323E+02,5.000E+00
7.90E+01,2.455E+01,-4.832E+01,-1.382E+02,5.000E+00
8.00E+01,2.483E+01,-4.854E+01,-1.390E+02,5.000E+00
8.10E+01,2.512E+01,-4.744E+01,-1.448E+02,5.000E+00
8.20E+01,2.541E+01,-4.805E+01,-1.313E+02,5.000E+00
8.30E+01,2.570E+01,-4.838E+01,-1.437E+02,5.000E+00
8.40E+01,2.600E+01,-4.853E+01,-1.451E+02,5.000E+00
8.50E+01,2.630E+01,-4.873E+01,-1.334E+02,5.000E+00
8.60E+01,2.661E+01,-4.789E+01,-1.443E+02,5.000E+00
8.70E+01,2.692E+01,-4.765E+01,-1.462E+02,5.000E+00
8.80E+01,2.723E+01,-4.794E+01,-1.393E+02,5.000E+00
8.90E+01,2.754E+01,-4.748E+01,-1.427E+02,5.000E+00
9.00E+01,2.786E+01,-4.877E+01,-1.378E+02,5.000E+00
9.10E+01,2.818E+01,-4.968E+01,-1.424E+02,5.000E+00
9.20E+01,2.851E+01,-4.815E+01,-1.526E+02,5.000E+00
9.30E+01,2.884E+01,-4.823E+01,-1.427E+02,5.000E+00
9.40E+01,2.917E+01,-4.858E+01,-1.346E+02,5.000E+00
9.50E+01,2.951E+01,-4.872E+01,-1.382E+02,5.000E+00
9.60E+01,2.985E+01,-4.748E+01,-1.428E+02,5.000E+00
9.70E+01,3.020E+01,-4.850E+01,-1.486E+02,5.000E+00
9.80E+01,3.055E+01,-4.748E+01,-1.401E+02,5.000E+00
9.90E+01,3.090E+01,-4.823E+01,-1.407E+02,5.000E+00
1.00E+02,3.126E+01,-4.828E+01,-1.404E+02,5.000E+00
1.01E+02,3.162E+01,-4.765E+01,-1.418E+02,5.000E+00
1.02E+02,3.199E+01,-4.727E+01,-1.442E+02,5.000E+00
1.03E+02,3.236E+01,-4.800E+01,-1.516E+02,5.000E+00
1.04E+02,3.273E+01,-4.652E+01,-1.483E+02,5.000E+00
1.05E+02,3.311E+01,-4.803E+01,-1.495E+02,5.000E+00
1.06E+02,3.350E+01,-4.729E+01,-1.410E+02,5.000E+00
1.07E+02,3.388E+01,-4.862E+01,-1.587E+02,5.000E+00
1.08E+02,3.428E+01,-4.730E+01,-1.509E+02,5.000E+00
1.09E+02,3.467E+01,-4.848E+01,-1.444E+02,5.000E+00
1.10E+02,3.508E+01,-4.666E+01,-1.534E+02,5.000E+00
1.11E+02,3.548E+01,-4.667E+01,-1.445E+02,5.000E+00
1.12E+02,3.589E+01,-4.677E+01,-1.475E+02,5.000E+00
1.13E+02,3.631E+01,-4.745E+01,-1.429E+02,5.000E+00
1.14E+02,3.673E+01,-4.740E+01,-1.436E+02,5.000E+00
1.15E+02,3.715E+01,-4.717E+01,-1.499E+02,5.000E+00
1.16E+02,3.758E+01,-4.669E+01,-1.491E+02,5.000E+00
1.17E+02,3.802E+01,-4.813E+01,-1.494E+02,5.000E+00
1.18E+02,3.846E+01,-4.758E+01,-1.499E+02,5.000E+00
1.19E+02,3.890E+01,-4.804E+01,-1.496E+02,5.000E+00
1.20E+02,3.936E+01,-4.729E+01,-1.476E+02,5.000E+00
1.21E+02,3.981E+01,-4.817E+01,-1.521E+02,5.000E+00
1.22E+02,4.027E+01,-4.641E+01,-1.554E+02,5.000E+00
1.23E+02,4.074E+01,-4.674E+01,-1.556E+02,5.000E+00
1.24E+02,4.121E+01,-4.671E+01,-1.495E+02,5.000E+00
1.25E+02,4.169E+01,-4.832E+01,-1.540E+02,5.000E+00
1.26E+02,4.217E+01,-4.762E+01,-1.564E+02,5.000E+00
1.27E+02,4.266E+01,-4.653E+01,-1.492E+02,5.000E+00
1.28E+02,4.315E+01,-4.653E+01,-1.574E+02,5.000E+00
1.29E+02,4.365E+01,-4.741E+01,-1.537E+02,5.000E+00
1.30E+02,4.416E+01,-4.703E+01,-1.511E+02,5.000E+00
1.31E+02,4.467E+01,-4.762E+01,-1.559E+02,5.000E+00
1.32E+02,4.519E+01,-4.712E+01,-1.464E+02,5.000E+00
1.33E+02,4.571E+01,-4.710E+01,-1.547E+02,5.000E+00
1.34E+02,4.624E+01,-4.711E+01,-1.472E+02,5.000E+00
1.35E+02,4.677E+01,-4.751E+01,-1.529E+02,5.000E+00
1.36E+02,4.732E+01,-4.709E+01,-1.602E+02,5.000E+00
1.37E+02,4.786E+01,-4.727E+01,-1.529E+02,5.000E+00
1.38E+02,4.842E+01,-4.691E+01,-1.568E+02,5.000E+00
1.39E+02,4.898E+01,-4.653E+01,-1.525E+02,5.000E+00
1.40E+02,4.955E+01,-4.716E+01,-1.569E+02,5.000E+00
1.41E+02,5.012E+01,-4.691E+01,-1.546E+02,5.000E+00
1.42E+02,5.070E+01,-4.685E+01,-1.546E+02,5.000E+00
1.43E+02,5.129E+01,-4.748E+01,-1.574E+02,5.000E+00
1.44E+02,5.188E+01,-4.684E+01,-1.596E+02,5.000E+00
1.45E+02,5.248E+01,-4.757E+01,-1.566E+02,5.000E+00
1.46E+02,5.309E+01,-4.688E+01,-1.584E+02,5.000E+00
1.47E+02,5.370E+01,-4.704E+01,-1.575E+02,5.000E+00
1.48E+02,5.433E+01,-4.672E+01,-1.580E+02,5.000E+00
1.49E+02,5.495E+01,-4.746E+01,-1.576E+02,5.000E+00
1.50E+02,5.559E+01,-4.678E+01,-1.558E+02,5.000E+00
1.51E+02,5.623E+01,-4.756E+01,-1.582E+02,5.000E+00
1.52E+02,5.689E+01,-4.696E+01,-1.572E+02,5.000E+00
1.53E+02,5.754E+01,-4.677E+01,-1.589E+02,5.000E+00
1.54E+02,5.821E+01,-4.711E+01,-1.587E+02,5.000E+00
1.55E+02,5.888E+01,-4.722E+01,-1.531E+02,5.000E+00
1.56E+02,5.957E+01,-4.659E+01,-1.580E+02,5.000E+00
1.57E+02,6.026E+01,-4.686E+01,-1.598E+02,5.000E+00
1.58E+02,6.095E+01,-4.708E+01,-1.598E+02,5.000E+00
1.59E+02,6.166E+01,-4.688E+01,-1.585E+02,5.000E+00
1.60E+02,6.237E+01,-4.715E+01,-1.626E+02,5.000E+00
1.61E+02,6.310E+01,-4.700E+01,-1.585E+02,5.000E+00
1.62E+02,6.383E+01,-4.684E+01,-1.622E+02,5.000E+00
1.63E+02,6.457E+01,-4.648E+01,-1.577E+02,5.000E+00
1.64E+02,6.531E+01,-4.727E+01,-1.638E+02,5.000E+00
1.65E+02,6.607E+01,-4.691E+01,-1.587E+02,5.000E+00
1.66E+02,6.683E+01,-4.663E+01,-1.602E+02,5.000E+00
1.67E+02,6.761E+01,-4.716E+01,-1.611E+02,5.000E+00
1.68E+02,6.839E+01,-4.668E+01,-1.593E+02,5.000E+00
1.69E+02,6.918E+01,-4.686E+01,-1.589E+02,5.000E+00
1.70E+02,6.998E+01,-4.675E+01,-1.615E+02,5.000E+00
1.71E+02,7.079E+01,-4.693E+01,-1.609E+02,5.000E+00
1.72E+02,7.161E+01,-4.672E+01,-1.619E+02,5.000E+00
1.73E+02,7.244E+01,-4.644E+01,-1.614E+02,5.000E+00
1.74E+02,7.328E+01,-4.681E+01,-1.613E+02,5.000E+00
1.75E+02,7.413E+01,-4.640E+01,-1.624E+02,5.000E+00
1.76E+02,7.499E+01,-4.665E+01,-1.618E+02,5.000E+00
1.77E+02,7.586E+01,-4.663E+01,-1.622E+02,5.000E+00
1.78E+02,7.674E+01,-4.667E+01,-1.622E+02,5.000E+00
1.79E+02,7.762E+01,-4.648E+01,-1.634E+02,5.000E+00
1.80E+02,7.852E+01,-4.663E+01,-1.629E+02,5.000E+00
1.81E+02,7.943E+01,-4.653E+01,-1.633E+02,5.000E+00
1.82E+02,8.035E+01,-4.616E+01,-1.635E+02,5.000E+00
1.83E+02,8.128E+01,-4.621E+01,-1.617E+02,5.000E+00
1.84E+02,8.222E+01,-4.624E+01,-1.624E+02,5.000E+00
1.85E+02,8.318E+01,-4.633E+01,-1.628E+02,5.000E+00
1.86E+02,8.414E+01,-4.663E+01,-1.637E+02,5.000E+00
1.87E+02,8.511E+01,-4.651E+01,-1.626E+02,5.000E+00
1.88E+02,8.610E+01,-4.616E+01,-1.636E+02,5.000E+00
1.89E+02,8.710E+01,-4.668E+01,-1.632E+02,5.000E+00
1.90E+02,8.810E+01,-4.683E+01,-1.640E+02,5.000E+00
1.91E+02,8.913E+01,-4.649E+01,-1.656E+02,5.000E+00
1.92E+02,9.016E+01,-4.651E+01,-1.641E+02,5.000E+00
1.93E+02,9.120E+01,-4.634E+01,-1.629E+02,5.000E+00
1.94E+02,9.226E+01,-4.640E+01,-1.655E+02,5.000E+00
1.95E+02,9.333E+01,-4.631E+01,-1.648E+02,5.000E+00
1.96E+02,9.441E+01,-4.657E+01,-1.664E+02,5.000E+00
1.97E+02,9.550E+01,-4.636E+01,-1.643E+02,5.000E+00
1.98E+02,9.661E+01,-4.640E+01,-1.645E+02,5.000E+00
1.99E+02,9.772E+01,-4.623E+01,-1.660E+02,5.000E+00
2.00E+02,9.886E+01,-4.623E+01,-1.642E+02,5.000E+00
2.01E+02,1.000E+02,-4.639E+01,-1.646E+02,5.000E+00
2.02E+02,1.012E+02,-4.651E+01,-1.658E+02,5.000E+00
2.03E+02,1.023E+02,-4.627E+01,-1.654E+02,5.000E+00
2.04E+02,1.035E+02,-4.637E+01,-1.656E+02,5.000E+00
2.05E+02,1.047E+02,-4.636E+01,-1.667E+02,5.000E+00
2.06E+02,1.059E+02,-4.629E+01,-1.673E+02,5.000E+00
2.07E+02,1.072E+02,-4.627E+01,-1.671E+02,5.000E+00
2.08E+02,1.084E+02,-4.636E+01,-1.683E+02,5.000E+00
2.09E+02,1.096E+02,-4.631E+01,-1.686E+02,5.000E+00
2.10E+02,1.109E+02,-4.643E+01,-1.662E+02,5.000E+00
2.11E+02,1.122E+02,-4.638E+01,-1.663E+02,5.000E+00
2.12E+02,1.135E+02,-4.638E+01,-1.673E+02,5.000E+00
2.13E+02,1.148E+02,-4.626E+01,-1.670E+02,5.000E+00
2.14E+02,1.161E+02,-4.624E+01,-1.667E+02,5.000E+00
2.15E+02,1.175E+02,-4.611E+01,-1.665E+02,5.000E+00
2.16E+02,1.189E+02,-4.636E+01,-1.671E+02,5.000E+00
2.17E+02,1.202E+02,-4.625E+01,-1.670E+02,5.000E+00
2.18E+02,1.216E+02,-4.624E+01,-1.679E+02,5.000E+00
2.19E+02,1.230E+02,-4.609E+01,-1.680E+02,5.000E+00
2.20E+02,1.245E+02,-4.622E+01,-1.678E+02,5.000E+00
2.21E+02,1.259E+02,-4.630E+01,-1.679E+02,5.000E+00
2.22E+02,1.274E+02,-4.623E+01,-1.689E+02,5.000E+00
2.23E+02,1.288E+02,-4.609E+01,-1.694E+02,5.000E+00
2.24E+02,1.303E+02,-4.615E+01,-1.686E+02,5.000E+00
2.25E+02,1.318E+02,-4.634E+01,-1.670E+02,5.000E+00
2.26E+02,1.334E+02,-4.609E+01,-1.700E+02,5.000E+00
2.27E+02,1.349E+02,-4.602E+01,-1.693E+02,5.000E+00
2.28E+02,1.365E+02,-4.631E+01,-1.688E+02,5.000E+00
2.29E+02,1.380E+02,-4.598E+01,-1.694E+02,5.000E+00
2.30E+02,1.396E+02,-4.617E+01,-1.704E+02,5.000E+00
2.31E+02,1.413E+02,-4.617E+01,-1.700E+02,5.000E+00
2.32E+02,1.429E+02,-4.624E+01,-1.673E+02,5.000E+00
2.33E+02,1.445E+02,-4.630E+01,-1.695E+02,5.000E+00
2.34E+02,1.462E+02,-4.626E+01,-1.680E+02,5.000E+00
2.35E+02,1.479E+02,-4.625E+01,-1.690E+02,5.000E+00
2.36E+02,1.496E+02,-4.609E+01,-1.681E+02,5.000E+00
2.37E+02,1.514E+02,-4.617E+01,-1.690E+02,5.000E+00
2.38E+02,1.531E+02,-4.612E+01,-1.691E+02,5.000E+00
2.39E+02,1.549E+02,-4.615E+01,-1.687E+02,5.000E+00
2.40E+02,1.567E+02,-4.624E+01,-1.691E+02,5.000E+00
2.41E+02,1.585E+02,-4.625E+01,-1.692E+02,5.000E+00
2.42E+02,1.603E+02,-4.593E+01,-1.696E+02,5.000E+00
2.43E+02,1.622E+02,-4.608E+01,-1.704E+02,5.000E+00
2.44E+02,1.641E+02,-4.615E+01,-1.708E+02,5.000E+00
2.45E+02,1.660E+02,-4.613E+01,-1.690E+02,5.000E+00
2.46E+02,1.679E+02,-4.604E+01,-1.707E+02,5.000E+00
2.47E+02,1.698E+02,-4.603E+01,-1.705E+02,5.000E+00
2.48E+02,1.718E+02,-4.605E+01,-1.700E+02,5.000E+00
2.49E+02,1.738E+02,-4.607E+01,-1.710E+02,5.000E+00
2.50E+02,1.758E+02,-4.597E+01,-1.716E+02,5.000E+00
2.51E+02,1.778E+02,-4.604E+01,-1.712E+02,5.000E+00
2.52E+02,1.799E+02,-4.607E+01,-1.704E+02,5.000E+00
2.53E+02,1.820E+02,-4.600E+01,-1.712E+02,5.000E+00
2.54E+02,1.841E+02,-4.607E+01,-1.709E+02,5.000E+00
2.55E+02,1.862E+02,-4.590E+01,-1.712E+02,5.000E+00
2.56E+02,1.884E+02,-4.592E+01,-1.708E+02,5.000E+00
2.57E+02,1.905E+02,-4.602E+01,-1.717E+02,5.000E+00
2.58E+02,1.928E+02,-4.606E+01,-1.707E+02,5.000E+00
2.59E+02,1.950E+02,-4.609E+01,-1.706E+02,5.000E+00
2.60E+02,1.972E+02,-4.603E+01,-1.715E+02,5.000E+00
2.61E+02,1.995E+02,-4.596E+01,-1.711E+02,5.000E+00
2.62E+02,2.018E+02,-4.618E+01,-1.713E+02,5.000E+00
2.63E+02,2.042E+02,-4.606E+01,-1.720E+02,5.000E+00
2.64E+02,2.065E+02,-4.596E+01,-1.712E+02,5.000E+00
2.65E+02,2.089E+02,-4.596E+01,-1.717E+02,5.000E+00
2.66E+02,2.113E+02,-4.589E+01,-1.708E+02,5.000E+00
2.67E+02,2.138E+02,-4.596E+01,-1.719E+02,5.000E+00
2.68E+02,2.163E+02,-4.591E+01,-1.721E+02,5.000E+00
2.69E+02,2.188E+02,-4.594E+01,-1.716E+02,5.000E+00
2.70E+02,2.213E+02,-4.593E+01,-1.722E+02,5.000E+00
2.71E+02,2.239E+02,-4.589E+01,-1.710E+02,5.000E+00
2.72E+02,2.265E+02,-4.599E+01,-1.722E+02,5.000E+00
2.73E+02,2.291E+02,-4.592E+01,-1.724E+02,5.000E+00
2.74E+02,2.317E+02,-4.598E+01,-1.719E+02,5.000E+00
2.75E+02,2.344E+02,-4.581E+01,-1.721E+02,5.000E+00
2.76E+02,2.371E+02,-4.600E+01,-1.711E+02,5.000E+00
2.77E+02,2.399E+02,-4.596E+01,-1.731E+02,5.000E+00
2.78E+02,2.427E+02,-4.599E+01,-1.726E+02,5.000E+00
2.79E+02,2.455E+02,-4.596E+01,-1.728E+02,5.000E+00
2.80E+02,2.483E+02,-4.586E+01,-1.718E+02,5.000E+00
2.81E+02,2.512E+02,-4.582E+01,-1.730E+02,5.000E+00
2.82E+02,2.541E+02,-4.576E+01,-1.727E+02,5.000E+00
2.83E+02,2.570E+02,-4.583E+01,-1.731E+02,5.000E+00
2.84E+02,2.600E+02,-4.576E+01,-1.726E+02,5.000E+00
2.85E+02,2.630E+02,-4.580E+01,-1.733E+02,5.000E+00
2.86E+02,2.661E+02,-4.576E+01,-1.730E+02,5.000E+00
2.87E+02,2.692E+02,-4.585E+01,-1.738E+02,5.000E+00
2.88E+02,2.723E+02,-4.584E+01,-1.723E+02,5.000E+00
2.89E+02,2.754E+02,-4.579E+01,-1.731E+02,5.000E+00
2.90E+02,2.786E+02,-4.585E+01,-1.736E+02,5.000E+00
2.91E+02,2.818E+02,-4.580E+01,-1.728E+02,5.000E+00
2.92E+02,2.851E+02,-4.578E+01,-1.728E+02,5.000E+00
2.93E+02,2.884E+02,-4.573E+01,-1.738E+02,5.000E+00
2.94E+02,2.917E+02,-4.579E+01,-1.735E+02,5.000E+00
2.95E+02,2.951E+02,-4.591E+01,-1.740E+02,5.000E+00
2.96E+02,2.985E+02,-4.582E+01,-1.729E+02,5.000E+00
2.97E+02,3.020E+02,-4.589E+01,-1.729E+02,5.000E+00
2.98E+02,3.055E+02,-4.581E+01,-1.740E+02,5.000E+00
2.99E+02,3.090E+02,-4.570E+01,-1.736E+02,5.000E+00
3.00E+02,3.126E+02,-4.584E+01,-1.742E+02,5.000E+00
3.01E+02,3.162E+02,-4.581E+01,-1.737E+02,5.000E+00
3.02E+02,3.199E+02,-4.574E+01,-1.736E+02,5.000E+00
3.03E+02,3.236E+02,-4.568E+01,-1.734E+02,5.000E+00
3.04E+02,3.273E+02,-4.576E+01,-1.746E+02,5.000E+00
3.05E+02,3.311E+02,-4.583E+01,-1.738E+02,5.000E+00
3.06E+02,3.350E+02,-4.580E+01,-1.733E+02,5.000E+00
3.07E+02,3.388E+02,-4.579E+01,-1.741E+02,5.000E+00
3.08E+02,3.428E+02,-4.569E+01,-1.741E+02,5.000E+00
3.09E+02,3.467E+02,-4.574E+01,-1.743E+02,5.000E+00
3.10E+02,3.508E+02,-4.579E+01,-1.747E+02,5.000E+00
3.11E+02,3.548E+02,-4.574E+01,-1.744E+02,5.000E+00
3.12E+02,3.589E+02,-4.574E+01,-1.745E+02,5.000E+00
3.13E+02,3.631E+02,-4.582E+01,-1.749E+02,5.000E+00
3.14E+02,3.673E+02,-4.580E+01,-1.747E+02,5.000E+00
3.15E+02,3.715E+02,-4.586E+01,-1.751E+02,5.000E+00
3.16E+02,3.758E+02,-4.574E+01,-1.746E+02,5.000E+00
3.17E+02,3.802E+02,-4.572E+01,-1.748E+02,5.000E+00
3.18E+02,3.846E+02,-4.569E+01,-1.752E+02,5.000E+00
3.19E+02,3.890E+02,-4.580E+01,-1.751E+02,5.000E+00
3.20E+02,3.936E+02,-4.578E+01,-1.747E+02,5.000E+00
3.21E+02,3.981E+02,-4.581E+01,-1.750E+02,5.000E+00
3.22E+02,4.027E+02,-4.576E+01,-1.750E+02,5.000E+00
3.23E+02,4.074E+02,-4.581E+01,-1.743E+02,5.000E+00
3.24E+02,4.121E+02,-4.583E+01,-1.747E+02,5.000E+00
3.25E+02,4.169E+02,-4.563E+01,-1.757E+02,5.000E+00
3.26E+02,4.217E+02,-4.572E+01,-1.746E+02,5.000E+00
3.27E+02,4.266E+02,-4.577E+01,-1.753E+02,5.000E+00
3.28E+02,4.315E+02,-4.579E+01,-1.753E+02,5.000E+00
3.29E+02,4.365E+02,-4.575E+01,-1.752E+02,5.000E+00
3.30E+02,4.416E+02,-4.562E+01,-1.755E+02,5.000E+00
3.31E+02,4.467E+02,-4.553E+01,-1.752E+02,5.000E+00
3.32E+02,4.519E+02,-4.574E+01,-1.754E+02,5.000E+00
3.33E+02,4.571E+02,-4.583E+01,-1.752E+02,5.000E+00
3.34E+02,4.624E+02,-4.571E+01,-1.759E+02,5.000E+00
3.35E+02,4.677E+02,-4.574E+01,-1.749E+02,5.000E+00
3.36E+02,4.732E+02,-4.572E+01,-1.756E+02,5.000E+00
3.37E+02,4.786E+02,-4.576E+01,-1.758E+02,5.000E+00
3.38E+02,4.842E+02,-4.560E+01,-1.755E+02,5.000E+00
3.39E+02,4.898E+02,-4.574E+01,-1.751E+02,5.000E+00
3.40E+02,4.955E+02,-4.563E+01,-1.761E+02,5.000E+00
3.41E+02,5.012E+02,-4.578E+01,-1.763E+02,5.000E+00
3.42E+02,5.070E+02,-4.570E+01,-1.754E+02,5.000E+00
3.43E+02,5.129E+02,-4.560E+01,-1.750E+02,5.000E+00
3.44E+02,5.188E+02,-4.569E+01,-1.755E+02,5.000E+00
3.45E+02,5.248E+02,-4.561E+01,-1.764E+02,5.000E+00
3.46E+02,5.309E+02,-4.571E+01,-1.757E+02,5.000E+00
3.47E+02,5.370E+02,-4.570E+01,-1.758E+02,5.000E+00
3.48E+02,5.433E+02,-4.571E+01,-1.767E+02,5.000E+00
3.49E+02,5.495E+02,-4.578E+01,-1.760E+02,5.000E+00
3.50E+02,5.559E+02,-4.556E+01,-1.754E+02,5.000E+00
3.51E+02,5.623E+02,-4.563E+01,-1.761E+02,5.000E+00
3.52E+02,5.689E+02,-4.563E+01,-1.762E+02,5.000E+00
3.53E+02,5.754E+02,-4.559E+01,-1.759E+02,5.000E+00
3.54E+02,5.821E+02,-4.568E+01,-1.767E+02,5.000E+00
3.55E+02,5.888E+02,-4.564E+01,-1.762E+02,5.000E+00
3.56E+02,5.957E+02,-4.568E+01,-1.756E+02,5.000E+00
3.57E+02,6.026E+02,-4.569E+01,-1.762E+02,5.000E+00
3.58E+02,6.095E+02,-4.560E+01,-1.762E+02,5.000E+00
3.59E+02,6.166E+02,-4.567E+01,-1.764E+02,5.000E+00
3.60E+02,6.237E+02,-4.563E+01,-1.767E+02,5.000E+00
3.61E+02,6.310E+02,-4.575E+01,-1.763E+02,5.000E+00
3.62E+02,6.383E+02,-4.562E+01,-1.761E+02,5.000E+00
3.63E+02,6.457E+02,-4.568E+01,-1.761E+02,5.000E+00
3.64E+02,6.531E+02,-4.567E+01,-1.766E+02,5.000E+00
3.65E+02,6.607E+02,-4.570E+01,-1.759E+02,5.000E+00
3.66E+02,6.683E+02,-4.559E+01,-1.759E+02,5.000E+00
3.67E+02,6.761E+02,-4.569E+01,-1.764E+02,5.000E+00
3.68E+02,6.839E+02,-4.559E+01,-1.769E+02,5.000E+00
3.69E+02,6.918E+02,-4.564E+01,-1.764E+02,5.000E+00
3.70E+02,6.998E+02,-4.567E+01,-1.765E+02,5.000E+00
3.71E+02,7.079E+02,-4.561E+01,-1.772E+02,5.000E+00
3.72E+02,7.161E+02,-4.568E+01,-1.762E+02,5.000E+00
3.73E+02,7.244E+02,-4.558E+01,-1.767E+02,5.000E+00
3.74E+02,7.328E+02,-4.563E+01,-1.766E+02,5.000E+00
3.75E+02,7.413E+02,-4.561E+01,-1.769E+02,5.000E+00
3.76E+02,7.499E+02,-4.564E+01,-1.769E+02,5.000E+00
3.77E+02,7.586E+02,-4.555E+01,-1.763E+02,5.000E+00
3.78E+02,7.674E+02,-4.569E+01,-1.763E+02,5.000E+00
3.79E+02,7.762E+02,-4.561E+01,-1.772E+02,5.000E+00
3.80E+02,7.852E+02,-4.561E+01,-1.765E+02,5.000E+00
3.81E+02,7.943E+02,-4.561E+01,-1.771E+02,5.000E+00
3.82E+02,8.035E+02,-4.560E+01,-1.765E+02,5.000E+00
3.83E+02,8.128E+02,-4.569E+01,-1.768E+02,5.000E+00
3.84E+02,8.222E+02,-4.560E+01,-1.769E+02,5.000E+00
3.85E+02,8.318E+02,-4.563E+01,-1.773E+02,5.000E+00
3.86E+02,8.414E+02,-4.552E+01,-1.775E+02,5.000E+00
3.87E+02,8.511E+02,-4.560E+01,-1.771E+02,5.000E+00
3.88E+02,8.610E+02,-4.544E+01,-1.768E+02,5.000E+00
3.89E+02,8.710E+02,-4.559E+01,-1.769E+02,5.000E+00
3.90E+02,8.810E+02,-4.574E+01,-1.773E+02,5.000E+00
