in Sa,Frequency in Hz,Gain in dB,Phase in °,Amplitude in Vpp
1.00E+00,1.000E+01,-5.638E+01,-1.356E+02,5.000E+00
2.00E+00,1.023E+01,-5.576E+01,-1.386E+02,5.000E+00
3.00E+00,1.047E+01,-5.518E+01,-1.342E+02,5.000E+00
4.00E+00,1.072E+01,-5.639E+01,-1.337E+02,5.000E+00
5.00E+00,1.096E+01,-5.589E+01,-1.398E+02,5.000E+00
6.00E+00,1.122E+01,-5.539E+01,-1.325E+02,5.000E+00
7.00E+00,1.148E+01,-5.484E+01,-1.358E+02,5.000E+00
8.00E+00,1.175E+01,-5.518E+01,-1.398E+02,5.000E+00
9.00E+00,1.202E+01,-5.485E+01,-1.332E+02,5.000E+00
1.00E+01,1.230E+01,-5.434E+01,-1.393E+02,5.000E+00
1.10E+01,1.259E+01,-5.553E+01,-1.352E+02,5.000E+00
1.20E+01,1.288E+01,-5.540E+01,-1.423E+02,5.000E+00
1.30E+01,1.318E+01,-5.493E+01,-1.490E+02,5.000E+00
1.40E+01,1.349E+01,-5.411E+01,-1.403E+02,5.000E+00
1.50E+01,1.380E+01,-5.361E+01,-1.437E+02,5.000E+00
1.60E+01,1.413E+01,-5.395E+01,-1.498E+02,5.000E+00
1.70E+01,1.445E+01,-5.474E+01,-1.451E+02,5.000E+00
1.80E+01,1.479E+01,-5.495E+01,-1.459E+02,5.000E+00
1.90E+01,1.514E+01,-5.329E+01,-1.432E+02,5.000E+00
2.00E+01,1.549E+01,-5.451E+01,-1.514E+02,5.000E+00
2.10E+01,1.585E+01,-5.460E+01,-1.551E+02,5.000E+00
2.20E+01,1.622E+01,-5.489E+01,-1.422E+02,5.000E+00
2.30E+01,1.660E+01,-5.382E+01,-1.459E+02,5.000E+00
2.40E+01,1.698E+01,-5.343E+01,-1.535E+02,5.000E+00
2.50E+01,1.738E+01,-5.409E+01,-1.466E+02,5.000E+00
2.60E+01,1.778E+01,-5.496E+01,-1.559E+02,5.000E+00
2.70E+01,1.820E+01,-5.378E+01,-1.482E+02,5.000E+00
2.80E+01,1.862E+01,-5.327E+01,-1.531E+02,5.000E+00
2.90E+01,1.905E+01,-5.305E+01,-1.479E+02,5.000E+00
3.00E+01,1.950E+01,-5.306E+01,-1.574E+02,5.000E+00
3.10E+01,1.995E+01,-5.412E+01,-1.660E+02,5.000E+00
3.20E+01,2.042E+01,-5.283E+01,-1.583E+02,5.000E+00
3.30E+01,2.089E+01,-5.315E+01,-1.548E+02,5.000E+00
3.40E+01,2.138E+01,-5.224E+01,-1.560E+02,5.000E+00
3.50E+01,2.188E+01,-5.358E+01,-1.571E+02,5.000E+00
3.60E+01,2.239E+01,-5.290E+01,-1.611E+02,5.000E+00
3.70E+01,2.291E+01,-5.317E+01,-1.581E+02,5.000E+00
3.80E+01,2.344E+01,-5.335E+01,-1.634E+02,5.000E+00
3.90E+01,2.399E+01,-5.414E+01,-1.564E+02,5.000E+00
4.00E+01,2.455E+01,-5.394E+01,-1.560E+02,5.000E+00
4.10E+01,2.512E+01,-5.313E+01,-1.599E+02,5.000E+00
4.20E+01,2.570E+01,-5.267E+01,-1.598E+02,5.000E+00
4.30E+01,2.630E+01,-5.279E+01,-1.558E+02,5.000E+00
4.40E+01,2.692E+01,-5.316E+01,-1.677E+02,5.000E+00
4.50E+01,2.754E+01,-5.259E+01,-1.557E+02,5.000E+00
4.60E+01,2.818E+01,-5.243E+01,-1.609E+02,5.000E+00
4.70E+01,2.884E+01,-5.291E+01,-1.615E+02,5.000E+00
4.80E+01,2.951E+01,-5.269E+01,-1.599E+02,5.000E+00
4.90E+01,3.020E+01,-5.321E+01,-1.615E+02,5.000E+00
5.00E+01,3.090E+01,-5.334E+01,-1.606E+02,5.000E+00
5.10E+01,3.162E+01,-5.218E+01,-1.654E+02,5.000E+00
5.20E+01,3.236E+01,-5.271E+01,-1.588E+02,5.000E+00
5.30E+01,3.311E+01,-5.259E+01,-1.628E+02,5.000E+00
5.40E+01,3.388E+01,-5.309E+01,-1.660E+02,5.000E+00
5.50E+01,3.467E+01,-5.262E+01,-1.611E+02,5.000E+00
5.60E+01,3.548E+01,-5.307E+01,-1.608E+02,5.000E+00
5.70E+01,3.631E+01,-5.341E+01,-1.629E+02,5.000E+00
5.80E+01,3.715E+01,-5.303E+01,-1.604E+02,5.000E+00
5.90E+01,3.802E+01,-5.190E+01,-1.664E+02,5.000E+00
6.00E+01,3.890E+01,-5.207E+01,-1.654E+02,5.000E+00
6.10E+01,3.981E+01,-5.187E+01,-1.662E+02,5.000E+00
6.20E+01,4.074E+01,-5.169E+01,-1.647E+02,5.000E+00
6.30E+01,4.169E+01,-5.231E+01,-1.653E+02,5.000E+00
6.40E+01,4.266E+01,-5.267E+01,-1.616E+02,5.000E+00
6.50E+01,4.365E+01,-5.131E+01,-1.628E+02,5.000E+00
6.60E+01,4.467E+01,-5.353E+01,-1.730E+02,5.000E+00
6.70E+01,4.571E+01,-5.226E+01,-1.726E+02,5.000E+00
6.80E+01,4.677E+01,-5.346E+01,-1.680E+02,5.000E+00
6.90E+01,4.786E+01,-5.189E+01,-1.619E+02,5.000E+00
7.00E+01,4.898E+01,-5.157E+01,-1.718E+02,5.000E+00
7.10E+01,5.012E+01,-5.160E+01,-1.639E+02,5.000E+00
7.20E+01,5.129E+01,-5.187E+01,-1.712E+02,5.000E+00
7.30E+01,5.248E+01,-5.204E+01,-1.673E+02,5.000E+00
7.40E+01,5.370E+01,-5.210E+01,-1.633E+02,5.000E+00
7.50E+01,5.495E+01,-5.187E+01,-1.731E+02,5.000E+00
7.60E+01,5.623E+01,-5.272E+01,-1.756E+02,5.000E+00
7.70E+01,5.754E+01,-5.272E+01,-1.717E+02,5.000E+00
7.80E+01,5.888E+01,-5.124E+01,-1.688E+02,5.000E+00
7.90E+01,6.026E+01,-5.239E+01,-1.772E+02,5.000E+00
8.00E+01,6.166E+01,-5.306E+01,-1.666E+02,5.000E+00
8.10E+01,6.310E+01,-5.188E+01,-1.664E+02,5.000E+00
8.20E+01,6.457E+01,-5.142E+01,-1.707E+02,5.000E+00
8.30E+01,6.607E+01,-5.317E+01,-1.744E+02,5.000E+00
8.40E+01,6.761E+01,-5.187E+01,-1.690E+02,5.000E+00
8.50E+01,6.918E+01,-5.243E+01,-1.701E+02,5.000E+00
8.60E+01,7.079E+01,-5.204E+01,-1.708E+02,5.000E+00
8.70E+01,7.244E+01,-5.146E+01,-1.725E+02,5.000E+00
8.80E+01,7.413E+01,-5.248E+01,-1.726E+02,5.000E+00
8.90E+01,7.586E+01,-5.218E+01,-1.696E+02,5.000E+00
9.00E+01,7.762E+01,-5.226E+01,-1.702E+02,5.000E+00
9.10E+01,7.943E+01,-5.245E+01,-1.700E+02,5.000E+00
9.20E+01,8.128E+01,-5.198E+01,-1.686E+02,5.000E+00
9.30E+01,8.318E+01,-5.211E+01,-1.729E+02,5.000E+00
9.40E+01,8.511E+01,-5.210E+01,-1.732E+02,5.000E+00
9.50E+01,8.710E+01,-5.193E+01,-1.736E+02,5.000E+00
9.60E+01,8.913E+01,-5.191E+01,-1.724E+02,5.000E+00
9.70E+01,9.120E+01,-5.218E+01,-1.750E+02,5.000E+00
9.80E+01,9.333E+01,-5.181E+01,-1.714E+02,5.000E+00
9.90E+01,9.550E+01,-5.215E+01,-1.747E+02,5.000E+00
1.00E+02,9.772E+01,-5.269E+01,-1.755E+02,5.000E+00
1.01E+02,1.000E+02,-5.225E+01,-1.731E+02,5.000E+00
1.02E+02,1.023E+02,-5.204E+01,-1.737E+02,5.000E+00
1.03E+02,1.047E+02,-5.225E+01,-1.759E+02,5.000E+00
1.04E+02,1.072E+02,-5.268E+01,-1.727E+02,5.000E+00
1.05E+02,1.096E+02,-5.260E+01,-1.756E+02,5.000E+00
1.06E+02,1.122E+02,-5.250E+01,-1.742E+02,5.000E+00
1.07E+02,1.148E+02,-5.208E+01,-1.729E+02,5.000E+00
1.08E+02,1.175E+02,-5.235E+01,-1.757E+02,5.000E+00
1.09E+02,1.202E+02,-5.239E+01,-1.736E+02,5.000E+00
1.10E+02,1.230E+02,-5.221E+01,-1.737E+02,5.000E+00
1.11E+02,1.259E+02,-5.209E+01,-1.754E+02,5.000E+00
1.12E+02,1.288E+02,-5.268E+01,-1.755E+02,5.000E+00
1.13E+02,1.318E+02,-5.200E+01,-1.743E+02,5.000E+00
1.14E+02,1.349E+02,-5.248E+01,-1.755E+02,5.000E+00
1.15E+02,1.380E+02,-5.211E+01,-1.756E+02,5.000E+00
1.16E+02,1.413E+02,-5.194E+01,-1.757E+02,5.000E+00
1.17E+02,1.445E+02,-5.225E+01,-1.755E+02,5.000E+00
1.18E+02,1.479E+02,-5.227E+01,-1.776E+02,5.000E+00
1.19E+02,1.514E+02,-5.221E+01,-1.754E+02,5.000E+00
1.20E+02,1.549E+02,-5.197E+01,-1.754E+02,5.000E+00
1.21E+02,1.585E+02,-5.253E+01,-1.754E+02,5.000E+00
1.22E+02,1.622E+02,-5.239E+01,-1.739E+02,5.000E+00
1.23E+02,1.660E+02,-5.184E+01,-1.755E+02,5.000E+00
1.24E+02,1.698E+02,-5.222E+01,-1.760E+02,5.000E+00
1.25E+02,1.738E+02,-5.204E+01,-1.770E+02,5.000E+00
1.26E+02,1.778E+02,-5.195E+01,-1.768E+02,5.000E+00
1.27E+02,1.820E+02,-5.193E+01,-1.757E+02,5.000E+00
1.28E+02,1.862E+02,-5.206E+01,-1.771E+02,5.000E+00
1.29E+02,1.905E+02,-5.221E+01,-1.767E+02,5.000E+00
1.30E+02,1.950E+02,-5.233E+01,-1.768E+02,5.000E+00
1.31E+02,1.995E+02,-5.202E+01,-1.766E+02,5.000E+00
1.32E+02,2.042E+02,-5.206E+01,-1.773E+02,5.000E+00
1.33E+02,2.089E+02,-5.205E+01,-1.754E+02,5.000E+00
1.34E+02,2.138E+02,-5.187E+01,-1.772E+02,5.000E+00
1.35E+02,2.188E+02,-5.230E+01,-1.789E+02,5.000E+00
1.36E+02,2.239E+02,-5.214E+01,-1.775E+02,5.000E+00
1.37E+02,2.291E+02,-5.216E+01,-1.763E+02,5.000E+00
1.38E+02,2.344E+02,-5.225E+01,-1.768E+02,5.000E+00
1.39E+02,2.399E+02,-5.236E+01,-1.765E+02,5.000E+00
1.40E+02,2.455E+02,-5.211E+01,-1.789E+02,5.000E+00
1.41E+02,2.512E+02,-5.241E+01,-1.788E+02,5.000E+00
1.42E+02,2.570E+02,-5.194E+01,-1.768E+02,5.000E+00
1.43E+02,2.630E+02,-5.204E+01,-1.766E+02,5.000E+00
1.44E+02,2.692E+02,-5.233E+01,-1.780E+02,5.000E+00
1.45E+02,2.754E+02,-5.208E+01,-1.773E+02,5.000E+00
1.46E+02,2.818E+02,-5.210E+01,-1.781E+02,5.000E+00
1.47E+02,2.884E+02,-5.209E+01,-1.775E+02,5.000E+00
1.48E+02,2.951E+02,-5.205E+01,-1.775E+02,5.000E+00
1.49E+02,3.020E+02,-5.221E+01,-1.779E+02,5.000E+00
1.50E+02,3.090E+02,-5.205E+01,-1.768E+02,5.000E+00
1.51E+02,3.162E+02,-5.205E+01,-1.780E+02,5.000E+00
1.52E+02,3.236E+02,-5.211E+01,-1.771E+02,5.000E+00
1.53E+02,3.311E+02,-5.219E+01,-1.779E+02,5.000E+00
1.54E+02,3.388E+02,-5.192E+01,-1.777E+02,5.000E+00
1.55E+02,3.467E+02,-5.209E+01,-1.786E+02,5.000E+00
1.56E+02,3.548E+02,-5.203E+01,-1.786E+02,5.000E+00
1.57E+02,3.631E+02,-5.211E+01,-1.798E+02,5.000E+00
1.58E+02,3.715E+02,-5.201E+01,-1.789E+02,5.000E+00
1.59E+02,3.802E+02,-5.216E+01,-1.769E+02,5.000E+00
1.60E+02,3.890E+02,-5.215E+01,-1.778E+02,5.000E+00
1.61E+02,3.981E+02,-5.213E+01,-1.772E+02,5.000E+00
1.62E+02,4.074E+02,-5.231E+01,-1.780E+02,5.000E+00
1.63E+02,4.169E+02,-5.219E+01,-1.767E+02,5.000E+00
1.64E+02,4.266E+02,-5.215E+01,-1.796E+02,5.000E+00
1.65E+02,4.365E+02,-5.224E+01,-1.776E+02,5.000E+00
1.66E+02,4.467E+02,-5.203E+01,-1.783E+02,5.000E+00
1.67E+02,4.571E+02,-5.215E+01,-1.785E+02,5.000E+00
1.68E+02,4.677E+02,-5.202E+01,-1.792E+02,5.000E+00
1.69E+02,4.786E+02,-5.233E+01,-1.768E+02,5.000E+00
1.70E+02,4.898E+02,-5.216E+01,-1.777E+02,5.000E+00
1.71E+02,5.012E+02,-5.199E+01,-1.797E+02,5.000E+00
1.72E+02,5.129E+02,-5.208E+01,-1.790E+02,5.000E+00
1.73E+02,5.248E+02,-5.193E+01,-1.795E+02,5.000E+00
1.74E+02,5.370E+02,-5.187E+01,-1.788E+02,5.000E+00
1.75E+02,5.495E+02,-5.215E+01,-1.771E+02,5.000E+00
1.76E+02,5.623E+02,-5.211E+01,-1.787E+02,5.000E+00
1.77E+02,5.754E+02,-5.202E+01,-1.792E+02,5.000E+00
1.78E+02,5.888E+02,-5.227E+01,-1.783E+02,5.000E+00
1.79E+02,6.026E+02,-5.214E+01,-1.774E+02,5.000E+00
1.80E+02,6.166E+02,-5.213E+01,-1.781E+02,5.000E+00
1.81E+02,6.310E+02,-5.203E+01,-1.777E+02,5.000E+00
1.82E+02,6.457E+02,-5.201E+01,-1.774E+02,5.000E+00
1.83E+02,6.607E+02,-5.201E+01,-1.795E+02,5.000E+00
1.84E+02,6.761E+02,-5.211E+01,-1.786E+02,5.000E+00
1.85E+02,6.918E+02,-5.202E+01,-1.789E+02,5.000E+00
1.86E+02,7.079E+02,-5.223E+01,-1.797E+02,5.000E+00
1.87E+02,7.244E+02,-5.223E+01,-1.793E+02,5.000E+00
1.88E+02,7.413E+02,-5.199E+01,-1.785E+02,5.000E+00
1.89E+02,7.586E+02,-5.211E+01,-1.782E+02,5.000E+00
1.90E+02,7.762E+02,-5.203E+01,-1.780E+02,5.000E+00
1.91E+02,7.943E+02,-5.191E+01,-1.789E+02,5.000E+00
1.92E+02,8.128E+02,-5.208E+01,-1.792E+02,5.000E+00
1.93E+02,8.318E+02,-5.214E+01,-1.790E+02,5.000E+00
1.94E+02,8.511E+02,-5.196E+01,-1.783E+02,5.000E+00
1.95E+02,8.710E+02,-5.184E+01,-1.795E+02,5.000E+00
1.96E+02,8.913E+02,-5.187E+01,-1.782E+02,5.000E+00
1.97E+02,9.120E+02,-5.215E+01,-1.785E+02,5.000E+00
1.98E+02,9.333E+02,-5.193E+01,-1.762E+02,5.000E+00
1.99E+02,9.550E+02,-5.206E+01,1.793E+02,5.000E+00
2.00E+02,9.772E+02,-5.205E+01,-1.774E+02,5.000E+00
2.01E+02,1.000E+03,-5.200E+01,-1.788E+02,5.000E+00
2.02E+02,1.023E+03,-5.211E+01,-1.788E+02,5.000E+00
2.03E+02,1.047E+03,-5.192E+01,-1.795E+02,5.000E+00
2.04E+02,1.072E+03,-5.182E+01,-1.799E+02,5.000E+00
2.05E+02,1.096E+03,-5.211E+01,1.800E+02,5.000E+00
2.06E+02,1.122E+03,-5.202E+01,-1.788E+02,5.000E+00
2.07E+02,1.148E+03,-5.212E+01,-1.798E+02,5.000E+00
2.08E+02,1.175E+03,-5.194E+01,-1.791E+02,5.000E+00
2.09E+02,1.202E+03,-5.212E+01,-1.799E+02,5.000E+00
2.10E+02,1.230E+03,-5.204E+01,-1.791E+02,5.000E+00
2.11E+02,1.259E+03,-5.207E+01,-1.791E+02,5.000E+00
2.12E+02,1.288E+03,-5.208E+01,-1.786E+02,5.000E+00
2.13E+02,1.318E+03,-5.193E+01,1.795E+02,5.000E+00
2.14E+02,1.349E+03,-5.195E+01,-1.796E+02,5.000E+00
2.15E+02,1.380E+03,-5.207E+01,-1.784E+02,5.000E+00
2.16E+02,1.413E+03,-5.197E+01,-1.799E+02,5.000E+00
2.17E+02,1.445E+03,-5.191E+01,-1.791E+02,5.000E+00
2.18E+02,1.479E+03,-5.192E+01,-1.797E+02,5.000E+00
2.19E+02,1.514E+03,-5.190E+01,-1.799E+02,5.000E+00
2.20E+02,1.549E+03,-5.210E+01,-1.792E+02,5.000E+00
2.21E+02,1.585E+03,-5.197E+01,-1.794E+02,5.000E+00
2.22E+02,1.622E+03,-5.191E+01,1.797E+02,5.000E+00
2.23E+02,1.660E+03,-5.181E+01,-1.794E+02,5.000E+00
2.24E+02,1.698E+03,-5.186E+01,-1.797E+02,5.000E+00
2.25E+02,1.738E+03,-5.193E+01,-1.799E+02,5.000E+00
2.26E+02,1.778E+03,-5.203E+01,-1.793E+02,5.000E+00
2.27E+02,1.820E+03,-5.182E+01,-1.790E+02,5.000E+00
2.28E+02,1.862E+03,-5.188E+01,1.797E+02,5.000E+00
2.29E+02,1.905E+03,-5.181E+01,-1.794E+02,5.000E+00
2.30E+02,1.950E+03,-5.189E+01,1.798E+02,5.000E+00
2.31E+02,1.995E+03,-5.211E+01,-1.794E+02,5.000E+00
2.32E+02,2.042E+03,-5.192E+01,-1.799E+02,5.000E+00
2.33E+02,2.089E+03,-5.203E+01,-1.799E+02,5.000E+00
2.34E+02,2.138E+03,-5.195E+01,-1.797E+02,5.000E+00
2.35E+02,2.188E+03,-5.180E+01,1.788E+02,5.000E+00
2.36E+02,2.239E+03,-5.188E+01,1.799E+02,5.000E+00
2.37E+02,2.291E+03,-5.191E+01,-1.797E+02,5.000E+00
2.38E+02,2.344E+03,-5.182E+01,1.795E+02,5.000E+00
2.39E+02,2.399E+03,-5.195E+01,1.795E+02,5.000E+00
2.40E+02,2.455E+03,-5.183E+01,1.793E+02,5.000E+00
2.41E+02,2.512E+03,-5.177E+01,1.776E+02,5.000E+00
2.42E+02,2.570E+03,-5.179E+01,1.781E+02,5.000E+00
2.43E+02,2.630E+03,-5.195E+01,1.788E+02,5.000E+00
2.44E+02,2.692E+03,-5.190E+01,1.794E+02,5.000E+00
2.45E+02,2.754E+03,-5.182E+01,1.794E+02,5.000E+00
2.46E+02,2.818E+03,-5.186E+01,1.791E+02,5.000E+00
2.47E+02,2.884E+03,-5.174E+01,1.788E+02,5.000E+00
2.48E+02,2.951E+03,-5.174E+01,1.785E+02,5.000E+00
2.49E+02,3.020E+03,-5.178E+01,1.788E+02,5.000E+00
2.50E+02,3.090E+03,-5.182E+01,1.788E+02,5.000E+00
2.51E+02,3.162E+03,-5.185E+01,1.797E+02,5.000E+00
2.52E+02,3.236E+03,-5.175E+01,1.783E+02,5.000E+00
2.53E+02,3.311E+03,-5.185E+01,1.787E+02,5.000E+00
2.54E+02,3.388E+03,-5.183E+01,1.779E+02,5.000E+00
2.55E+02,3.467E+03,-5.175E+01,1.780E+02,5.000E+00
2.56E+02,3.548E+03,-5.174E+01,1.791E+02,5.000E+00
2.57E+02,3.631E+03,-5.177E+01,1.779E+02,5.000E+00
2.58E+02,3.715E+03,-5.189E+01,1.776E+02,5.000E+00
2.59E+02,3.802E+03,-5.183E+01,1.774E+02,5.000E+00
2.60E+02,3.890E+03,-5.178E+01,1.778E+02,5.000E+00
2.61E+02,3.981E+03,-5.179E+01,1.780E+02,5.000E+00
2.62E+02,4.074E+03,-5.174E+01,1.780E+02,5.000E+00
2.63E+02,4.169E+03,-5.188E+01,1.776E+02,5.000E+00
2.64E+02,4.266E+03,-5.174E+01,1.764E+02,5.000E+00
2.65E+02,4.365E+03,-5.179E+01,1.770E+02,5.000E+00
2.66E+02,4.467E+03,-5.178E+01,1.761E+02,5.000E+00
2.67E+02,4.571E+03,-5.181E+01,1.769E+02,5.000E+00
2.68E+02,4.677E+03,-5.176E+01,1.771E+02,5.000E+00
2.69E+02,4.786E+03,-5.180E+01,1.778E+02,5.000E+00
2.70E+02,4.898E+03,-5.175E+01,1.774E+02,5.000E+00
2.71E+02,5.012E+03,-5.172E+01,1.769E+02,5.000E+00
2.72E+02,5.129E+03,-5.180E+01,1.763E+02,5.000E+00
2.73E+02,5.248E+03,-5.177E+01,1.751E+02,5.000E+00
2.74E+02,5.370E+03,-5.178E+01,1.764E+02,5.000E+00
2.75E+02,5.495E+03,-5.184E+01,1.761E+02,5.000E+00
2.76E+02,5.623E+03,-5.182E+01,1.766E+02,5.000E+00
2.77E+02,5.754E+03,-5.178E+01,1.767E+02,5.000E+00
2.78E+02,5.888E+03,-5.183E+01,1.756E+02,5.000E+00
2.79E+02,6.026E+03,-5.180E+01,1.753E+02,5.000E+00
2.80E+02,6.166E+03,-5.181E+01,1.747E+02,5.000E+00
2.81E+02,6.310E+03,-5.172E+01,1.753E+02,5.000E+00
2.82E+02,6.457E+03,-5.188E+01,1.757E+02,5.000E+00
2.83E+02,6.607E+03,-5.178E+01,1.755E+02,5.000E+00
2.84E+02,6.761E+03,-5.188E+01,1.739E+02,5.000E+00
2.85E+02,6.918E+03,-5.183E+01,1.747E+02,5.000E+00
2.86E+02,7.079E+03,-5.185E+01,1.748E+02,5.000E+00
2.87E+02,7.244E+03,-5.176E+01,1.753E+02,5.000E+00
2.88E+02,7.413E+03,-5.178E+01,1.739E+02,5.000E+00
2.89E+02,7.586E+03,-5.178E+01,1.739E+02,5.000E+00
2.90E+02,7.762E+03,-5.173E+01,1.737E+02,5.000E+00
2.91E+02,7.943E+03,-5.181E+01,1.739E+02,5.000E+00
2.92E+02,8.128E+03,-5.182E+01,1.742E+02,5.000E+00
2.93E+02,8.318E+03,-5.178E+01,1.736E+02,5.000E+00
2.94E+02,8.511E+03,-5.184E+01,1.730E+02,5.000E+00
2.95E+02,8.710E+03,-5.183E+01,1.725E+02,5.000E+00
2.96E+02,8.913E+03,-5.185E+01,1.727E+02,5.000E+00
2.97E+02,9.120E+03,-5.184E+01,1.721E+02,5.000E+00
2.98E+02,9.333E+03,-5.180E+01,1.723E+02,5.000E+00
2.99E+02,9.550E+03,-5.181E+01,1.724E+02,5.000E+00
3.00E+02,9.772E+03,-5.187E+01,1.729E+02,5.000E+00
3.01E+02,1.000E+04,-5.181E+01,1.717E+02,5.000E+00
